# Pulseq sequence file
# Created by MATLAB mr toolbox

[VERSION]
major 1
minor 5
revision 0

[DEFINITIONS]
AdcRasterTime 1e-07 
BlockDurationRaster 1e-05 
FOV 0.192 0.192 0.15 
GradientRasterTime 1e-05 
MaxAdcSegmentLength 7432 
Name mreg_FOV 
RadiofrequencyRasterTime 1e-06 
TE 0.00172 0.03657 
TotalDuration 0.1 

# Format of blocks:
# NUM DUR RF  GX  GY  GZ  ADC  EXT
[BLOCKS]
1 152   1   0   0   1  0  0
2  20   0   0   0   2  0  0
3   0   0   0   0   0  0  1
4 7434   0   3   4   5  1  0
5   0   0   0   0   0  0  2
6 683   0   6   6   6  0  0
7 1711   0   0   0   0  0  0

# Format of RF events:
# id ampl. mag_id phase_id time_shape_id center delay freqPPM phasePPM freq phase use
# ..   Hz      ..       ..            ..     us    us     ppm  rad/MHz   Hz   rad  ..
# Field 'use' is the initial of: excitation refocusing inversion saturation preparation other undefined
[RF]
1      793.451 1 2 0 700 100 0 0 0 0 e

# Format of arbitrary gradients:
#   time_shape_id of 0 means default timing (stepping with grad_raster starting at 1/2 of grad_raster)
# id amplitude first last amp_shape_id time_shape_id delay
# ..      Hz/m  Hz/m Hz/m        ..         ..          us
[GRADIENTS]
3       932224            0            0 3 0 10
4       925769            0            0 4 0 10
5      -966882            0            0 5 0 10

# Format of trapezoid gradients:
# id amplitude rise flat fall delay
# ..      Hz/m   us   us   us    us
[TRAP]
 1      95238.1  20 1400  20  80
 2      -676190 100    0 100   0
 6 -1.61551e+06 640 5550 640   0

# Format of ADC events:
# id num dwell delay freqPPM phasePPM freq phase phase_id
# ..  ..    ns    us     ppm  rad/MHz   Hz   rad       ..
[ADC]
1 14864 5000 10 0 0 0 0 0

# Format of extension lists:
# id type ref next_id
# next_id of 0 terminates the list
# Extension list is followed by extension specifications
[EXTENSIONS]
1 1 1 0
2 1 2 0

# Extension specification for setting labels:
# id set labelstring
extension LABELSET 1
1 1 NOPOS
2 0 NOPOS

# Sequence Shapes
[SHAPES]

shape_id 1
num_samples 1400
8.99842151e-10
2.43199855e-08
1.12656298e-07
3.09170473e-07
6.56904246e-07
1.19849185e-06
1.97597265e-06
3.03060449e-06
4.40267826e-06
6.13133416e-06
8.25438023e-06
1.08081136e-05
1.38271452e-05
1.73442275e-05
2.13900878e-05
2.59932649e-05
3.11799517e-05
3.69738435e-05
4.33959919e-05
5.04646662e-05
5.81952207e-05
6.65999704e-05
7.56880738e-05
8.54654244e-05
9.59345506e-05
0.000107094525
0.000118940881
0.000131465543
0.000144656762
0.000158499065
0.00017297321
0.00018805616
0.000203721059
0.000219937222
0.000236670141
0.000253881493
0.000271529171
0.000289567313
0.000307946355
0.00032661309
0.000345510734
0.000364579015
0.000383754263
0.000402969516
0.000422154638
0.000441236446
0.000460138849
0.000478782996
0.000497087441
0.000514968309
0.00053233948
0.000549112778
0.000565198171
0.000580503982
0.000594937105
0.000608403235
0.000620807096
0.000632052689
0.000642043539
0.000650682947
0.000657874259
0.000663521124
0.000667527772
0.00066979929
0.0006702419
0.000668763241
0.00066527266
0.000659681496
0.000651903371
0.000641854477
0.00062945387
0.000614623758
0.000597289788
0.000577381332
0.000554831771
0.000529578776
0.000501564581
0.000470736257
0.000437045976
0.000400451271
0.000360915288
0.000318407032
0.000272901604
0.000224380428
0.00017283147
0.000118249448
6.06360244e-05
1.48373487e-18
6.36425181e-05
0.000130267953
0.000199845108
0.000272335037
0.000347690918
0.00042585795
0.000506773266
0.000590365854
0.0006765565
0.000765257746
0.000856373867
0.000949800861
0.00104542646
0.00114313016
0.00124278326
0.00134424894
0.00144738233
0.00155203061
0.00165803316
0.00176522166
0.00187342027
0.0019824458
0.00209210792
0.00220220937
0.00231254618
0.00242290793
0.00253307803
0.00264283403
0.00275194785
0.00286018621
0.00296731089
0.00307307913
0.00317724399
0.00327955477
0.00337975737
0.00347759476
0.0035728074
0.00366513367
0.00375431037
0.00384007319
0.00392215718
0.00400029726
0.00407422874
0.00414368785
0.00420841222
0.00426814149
0.00432261777
0.00437158629
0.00441479585
0.00445199947
0.00448295488
0.00450742516
0.00452517922
0.00453599245
0.00453964723
0.00453593349
0.00452464934
0.00450560152
0.00447860605
0.0044434887
0.00440008558
0.00434824364
0.00428782118
0.00421868838
0.0041407278
0.00405383481
0.00395791813
0.00385290024
0.00373871781
0.00361532215
0.00348267957
0.0033407718
0.00318959634
0.00302916675
0.00285951306
0.00268068196
0.00249273714
0.00229575951
0.00208984739
0.00187511676
0.00165170134
0.00141975282
0.00117944086
0.000930953247
0.000674495899
0.000410292885
0.000138586405
0.000140363257
0.00042627782
0.000718861122
0.00101779927
0.00132276082
0.001633397
0.00194934196
0.00227021303
0.0025956111
0.00292512091
0.00325831147
0.00359473645
0.0039339347
0.00427543064
0.00461873489
0.00496334471
0.00530874468
0.00565440727
0.0059997935
0.00634435361
0.00668752778
0.00702874686
0.00736743315
0.00770300119
0.00803485856
0.00836240675
0.00868504203
0.00900215634
0.00931313821
0.00961737368
0.00991424729
0.0102031431
0.0104834454
0.0107545403
0.0110158162
0.0112666649
0.0115064831
0.011734673
0.0119506433
0.0121538109
0.0123436012
0.0125194498
0.0126808033
0.0128271202
0.0129578725
0.0130725463
0.0131706432
0.013251681
0.0133151954
0.0133607402
0.013387889
0.013396236
0.0133853969
0.0133550099
0.0133047371
0.0132342646
0.0131433042
0.013031594
0.0128988991
0.0127450128
0.012569757
0.0123729831
0.0121545732
0.01191444
0.0116525279
0.0113688139
0.0110633074
0.0107360517
0.0103871235
0.0100166342
0.00962472977
0.00921159134
0.00877743539
0.00832251409
0.00784711542
0.00735156339
0.00683621805
0.00630147563
0.00574776843
0.0051755648
0.00458536899
0.00397772096
0.00335319616
0.00271240518
0.00205599341
0.00138464062
0.000699060483
5.77812473e-17
0.000711761069
0.00143541088
0.00217010623
0.00291497332
0.00366910862
0.00443157974
0.00520142638
0.00597766138
0.00675927173
0.00754521975
0.00833444422
0.00912586162
0.00991836742
0.0107108374
0.0115021291
0.012291083
0.0130765244
0.0138572646
0.0146321026
0.0153998266
0.016159216
0.0169090424
0.0176480721
0.0183750673
0.0190887879
0.0197879937
0.0204714459
0.021137909
0.0217861528
0.0224149542
0.0230230992
0.0236093846
0.0241726203
0.0247116309
0.0252252578
0.0257123614
0.0261718226
0.026602545
0.0270034569
0.0273735129
0.0277116964
0.0280170209
0.0282885324
0.0285253108
0.0287264722
0.0288911703
0.0290185984
0.0291079913
0.0291586267
0.0291698269
0.0291409607
0.0290714449
0.0289607456
0.0288083799
0.0286139172
0.028376981
0.0280972494
0.0277744571
0.0274083963
0.0269989178
0.026545932
0.02604941
0.0255093845
0.0249259505
0.0242992662
0.0236295535
0.0229170987
0.022162253
0.0213654327
0.0205271198
0.0196478622
0.0187282734
0.0177690333
0.0167708874
0.015734647
0.0146611892
0.013551456
0.0124064543
0.0112272551
0.010014993
0.00877086548
0.00749613195
0.00619211289
0.00486018881
0.00350179909
0.00211844074
0.000711667092
0.00071691363
0.00216563986
0.00363279831
0.00511662567
0.00661531042
0.00812699474
0.00964977652
0.0111817114
0.012720815
0.0142650651
0.0158124039
0.0173607408
0.0189079544
0.0204518953
0.0219903889
0.0235212378
0.0250422248
0.0265511155
0.0280456615
0.0295236033
0.0309826728
0.0324205972
0.0338351014
0.0352239116
0.036584758
0.0379153786
0.039213522
0.0404769508
0.041703445
0.0428908051
0.0440368556
0.0451394484
0.0461964657
0.0472058239
0.0481654766
0.0490734178
0.0499276857
0.0507263654
0.0514675924
0.0521495562
0.0527705026
0.0533287378
0.0538226311
0.0542506176
0.054611202
0.0549029609
0.0551245458
0.0552746864
0.0553521927
0.055355958
0.0552849614
0.0551382704
0.0549150434
0.0546145316
0.0542360816
0.0537791377
0.0532432431
0.0526280427
0.0519332845
0.0511588212
0.0503046117
0.0493707228
0.0483573303
0.0472647203
0.0460932899
0.0448435483
0.0435161178
0.042111734
0.0406312462
0.0390756182
0.037445928
0.035743368
0.0339692449
0.0321249791
0.0302121047
0.0282322685
0.0261872293
0.0240788572
0.0219091321
0.0196801428
0.0173940856
0.0150532623
0.0126600788
0.0102170434
0.00772676421
0.00519194733
0.00261539438
1.03358224e-16
0.00265125088
0.00533528581
0.00804894781
0.0107889985
0.0135521214
0.0163349252
0.0191339476
0.0219456585
0.0247664643
0.0275927116
0.0304206914
0.033246643
0.0360667588
0.0388771882
0.0416740423
0.0444533988
0.0472113063
0.0499437894
0.0526468536
0.05531649
0.0579486808
0.060539404
0.063084639
0.0655803716
0.0680225994
0.0704073371
0.0727306221
0.0749885195
0.0771771281
0.0792925856
0.0813310741
0.0832888255
0.0851621274
0.0869473281
0.0886408424
0.0902391571
0.0917388361
0.0931365262
0.0944289622
0.0956129723
0.0966854832
0.0976435257
0.0984842393
0.0992048775
0.0998028129
0.100275542
0.100620689
0.100836012
0.100919408
0.100868913
0.100682713
0.100359142
0.0998966907
0.0992940066
0.0985499004
0.0976633485
0.0966334963
0.0954596619
0.0941413388
0.0926781991
0.0910700958
0.0893170655
0.0874193309
0.0853773025
0.0831915809
0.0808629581
0.0783924195
0.0757811445
0.0730305082
0.0701420818
0.0671176332
0.0639591278
0.0606687279
0.0572487933
0.0537018806
0.0500307426
0.0462383277
0.0423277786
0.0383024313
0.0341658132
0.0299216417
0.0255738219
0.0211264444
0.0165837827
0.011950291
0.00723060041
0.00242951625
0.00244798552
0.007396762
0.0124115073
0.0174867566
0.0226168905
0.02779614
0.0330185906
0.038278188
0.0435687429
0.0488839367
0.054217327
0.0595623535
0.0649123438
0.0702605202
0.0756000055
0.0809238296
0.0862249366
0.0914961915
0.0967303873
0.101920252
0.107058456
0.112137619
0.117150321
0.122089103
0.126946482
0.131714954
0.136387007
0.140955123
0.145411789
0.149749508
0.153960803
0.158038227
0.161974371
0.165761874
0.169393429
0.172861793
0.176159795
0.179280345
0.18221644
0.184961176
0.187507754
0.189849488
0.191979815
0.193892301
0.195580651
0.197038716
0.198260502
0.199240174
0.199972069
0.2004507
0.200670765
0.200627154
0.200314953
0.199729459
0.198866175
0.197720829
0.19628937
0.194567982
0.192553084
0.19024134
0.187629663
0.18471522
0.181495436
0.177968004
0.174130883
0.169982305
0.165520781
0.160745104
0.155654348
0.150247879
0.144525351
0.138486715
0.132132215
0.125462394
0.118478096
0.111180466
0.103570952
0.0956513049
0.0874235797
0.0788901365
0.0700536392
0.0609170559
0.0514836577
0.0417570179
0.0317410106
0.0214398092
0.0108578839
2.3447056e-16
0.0111287853
0.0225231254
0.034177388
0.0460856583
0.0582417433
0.0706391758
0.0832712186
0.0961308702
0.109210869
0.122503699
0.136001597
0.149696555
0.16358033
0.177644449
0.191880216
0.206278719
0.220830839
0.235527254
0.250358449
0.265314725
0.280386205
0.295562845
0.310834441
0.326190637
0.341620936
0.35711471
0.372661207
0.388249561
0.403868802
0.41950787
0.435155616
0.450800822
0.466432204
0.482038427
0.497608112
0.513129849
0.528592206
0.543983742
0.559293014
0.574508592
0.589619065
0.604613057
0.619479233
0.634206313
0.648783081
0.663198398
0.677441208
0.691500554
0.705365584
0.719025567
0.732469895
0.745688103
0.758669871
0.771405039
0.783883612
0.796095778
0.808031908
0.819682572
0.831038546
0.842090819
0.852830607
0.863249355
0.873338752
0.883090736
0.892497498
0.901551499
0.910245469
0.918572418
0.926525642
0.934098731
0.941285572
0.94808036
0.9544776
0.960472111
0.966059038
0.97123385
0.975992346
0.980330663
0.984245274
0.987732996
0.990790991
0.993416772
0.995608198
0.997363486
0.998681206
0.999560282
1
1
0.999560282
0.998681206
0.997363486
0.995608198
0.993416772
0.990790991
0.987732996
0.984245274
0.980330663
0.975992346
0.97123385
0.966059038
0.960472111
0.9544776
0.94808036
0.941285572
0.934098731
0.926525642
0.918572418
0.910245469
0.901551499
0.892497498
0.883090736
0.873338752
0.863249355
0.852830607
0.842090819
0.831038546
0.819682572
0.808031908
0.796095778
0.783883612
0.771405039
0.758669871
0.745688103
0.732469895
0.719025567
0.705365584
0.691500554
0.677441208
0.663198398
0.648783081
0.634206313
0.619479233
0.604613057
0.589619065
0.574508592
0.559293014
0.543983742
0.528592206
0.513129849
0.497608112
0.482038427
0.466432204
0.450800822
0.435155616
0.41950787
0.403868802
0.388249561
0.372661207
0.35711471
0.341620936
0.326190637
0.310834441
0.295562845
0.280386205
0.265314725
0.250358449
0.235527254
0.220830839
0.206278719
0.191880216
0.177644449
0.16358033
0.149696555
0.136001597
0.122503699
0.109210869
0.0961308702
0.0832712186
0.0706391758
0.0582417433
0.0460856583
0.034177388
0.0225231254
0.0111287853
2.3447056e-16
0.0108578839
0.0214398092
0.0317410106
0.0417570179
0.0514836577
0.0609170559
0.0700536392
0.0788901365
0.0874235797
0.0956513049
0.103570952
0.111180466
0.118478096
0.125462394
0.132132215
0.138486715
0.144525351
0.150247879
0.155654348
0.160745104
0.165520781
0.169982305
0.174130883
0.177968004
0.181495436
0.18471522
0.187629663
0.19024134
0.192553084
0.194567982
0.19628937
0.197720829
0.198866175
0.199729459
0.200314953
0.200627154
0.200670765
0.2004507
0.199972069
0.199240174
0.198260502
0.197038716
0.195580651
0.193892301
0.191979815
0.189849488
0.187507754
0.184961176
0.18221644
0.179280345
0.176159795
0.172861793
0.169393429
0.165761874
0.161974371
0.158038227
0.153960803
0.149749508
0.145411789
0.140955123
0.136387007
0.131714954
0.126946482
0.122089103
0.117150321
0.112137619
0.107058456
0.101920252
0.0967303873
0.0914961915
0.0862249366
0.0809238296
0.0756000055
0.0702605202
0.0649123438
0.0595623535
0.054217327
0.0488839367
0.0435687429
0.038278188
0.0330185906
0.02779614
0.0226168905
0.0174867566
0.0124115073
0.007396762
0.00244798552
0.00242951625
0.00723060041
0.011950291
0.0165837827
0.0211264444
0.0255738219
0.0299216417
0.0341658132
0.0383024313
0.0423277786
0.0462383277
0.0500307426
0.0537018806
0.0572487933
0.0606687279
0.0639591278
0.0671176332
0.0701420818
0.0730305082
0.0757811445
0.0783924195
0.0808629581
0.0831915809
0.0853773025
0.0874193309
0.0893170655
0.0910700958
0.0926781991
0.0941413388
0.0954596619
0.0966334963
0.0976633485
0.0985499004
0.0992940066
0.0998966907
0.100359142
0.100682713
0.100868913
0.100919408
0.100836012
0.100620689
0.100275542
0.0998028129
0.0992048775
0.0984842393
0.0976435257
0.0966854832
0.0956129723
0.0944289622
0.0931365262
0.0917388361
0.0902391571
0.0886408424
0.0869473281
0.0851621274
0.0832888255
0.0813310741
0.0792925856
0.0771771281
0.0749885195
0.0727306221
0.0704073371
0.0680225994
0.0655803716
0.063084639
0.060539404
0.0579486808
0.05531649
0.0526468536
0.0499437894
0.0472113063
0.0444533988
0.0416740423
0.0388771882
0.0360667588
0.033246643
0.0304206914
0.0275927116
0.0247664643
0.0219456585
0.0191339476
0.0163349252
0.0135521214
0.0107889985
0.00804894781
0.00533528581
0.00265125088
1.57260563e-16
0.00261539438
0.00519194733
0.00772676421
0.0102170434
0.0126600788
0.0150532623
0.0173940856
0.0196801428
0.0219091321
0.0240788572
0.0261872293
0.0282322685
0.0302121047
0.0321249791
0.0339692449
0.035743368
0.037445928
0.0390756182
0.0406312462
0.042111734
0.0435161178
0.0448435483
0.0460932899
0.0472647203
0.0483573303
0.0493707228
0.0503046117
0.0511588212
0.0519332845
0.0526280427
0.0532432431
0.0537791377
0.0542360816
0.0546145316
0.0549150434
0.0551382704
0.0552849614
0.055355958
0.0553521927
0.0552746864
0.0551245458
0.0549029609
0.054611202
0.0542506176
0.0538226311
0.0533287378
0.0527705026
0.0521495562
0.0514675924
0.0507263654
0.0499276857
0.0490734178
0.0481654766
0.0472058239
0.0461964657
0.0451394484
0.0440368556
0.0428908051
0.041703445
0.0404769508
0.039213522
0.0379153786
0.036584758
0.0352239116
0.0338351014
0.0324205972
0.0309826728
0.0295236033
0.0280456615
0.0265511155
0.0250422248
0.0235212378
0.0219903889
0.0204518953
0.0189079544
0.0173607408
0.0158124039
0.0142650651
0.012720815
0.0111817114
0.00964977652
0.00812699474
0.00661531042
0.00511662567
0.00363279831
0.00216563986
0.00071691363
0.000711667092
0.00211844074
0.00350179909
0.00486018881
0.00619211289
0.00749613195
0.00877086548
0.010014993
0.0112272551
0.0124064543
0.013551456
0.0146611892
0.015734647
0.0167708874
0.0177690333
0.0187282734
0.0196478622
0.0205271198
0.0213654327
0.022162253
0.0229170987
0.0236295535
0.0242992662
0.0249259505
0.0255093845
0.02604941
0.026545932
0.0269989178
0.0274083963
0.0277744571
0.0280972494
0.028376981
0.0286139172
0.0288083799
0.0289607456
0.0290714449
0.0291409607
0.0291698269
0.0291586267
0.0291079913
0.0290185984
0.0288911703
0.0287264722
0.0285253108
0.0282885324
0.0280170209
0.0277116964
0.0273735129
0.0270034569
0.026602545
0.0261718226
0.0257123614
0.0252252578
0.0247116309
0.0241726203
0.0236093846
0.0230230992
0.0224149542
0.0217861528
0.021137909
0.0204714459
0.0197879937
0.0190887879
0.0183750673
0.0176480721
0.0169090424
0.016159216
0.0153998266
0.0146321026
0.0138572646
0.0130765244
0.012291083
0.0115021291
0.0107108374
0.00991836742
0.00912586162
0.00833444422
0.00754521975
0.00675927173
0.00597766138
0.00520142638
0.00443157974
0.00366910862
0.00291497332
0.00217010623
0.00143541088
0.000711761069
5.77812473e-17
0.000699060483
0.00138464062
0.00205599341
0.00271240518
0.00335319616
0.00397772096
0.00458536899
0.0051755648
0.00574776843
0.00630147563
0.00683621805
0.00735156339
0.00784711542
0.00832251409
0.00877743539
0.00921159134
0.00962472977
0.0100166342
0.0103871235
0.0107360517
0.0110633074
0.0113688139
0.0116525279
0.01191444
0.0121545732
0.0123729831
0.012569757
0.0127450128
0.0128988991
0.013031594
0.0131433042
0.0132342646
0.0133047371
0.0133550099
0.0133853969
0.013396236
0.013387889
0.0133607402
0.0133151954
0.013251681
0.0131706432
0.0130725463
0.0129578725
0.0128271202
0.0126808033
0.0125194498
0.0123436012
0.0121538109
0.0119506433
0.011734673
0.0115064831
0.0112666649
0.0110158162
0.0107545403
0.0104834454
0.0102031431
0.00991424729
0.00961737368
0.00931313821
0.00900215634
0.00868504203
0.00836240675
0.00803485856
0.00770300119
0.00736743315
0.00702874686
0.00668752778
0.00634435361
0.0059997935
0.00565440727
0.00530874468
0.00496334471
0.00461873489
0.00427543064
0.0039339347
0.00359473645
0.00325831147
0.00292512091
0.0025956111
0.00227021303
0.00194934196
0.001633397
0.00132276082
0.00101779927
0.000718861122
0.00042627782
0.000140363257
0.000138586405
0.000410292885
0.000674495899
0.000930953247
0.00117944086
0.00141975282
0.00165170134
0.00187511676
0.00208984739
0.00229575951
0.00249273714
0.00268068196
0.00285951306
0.00302916675
0.00318959634
0.0033407718
0.00348267957
0.00361532215
0.00373871781
0.00385290024
0.00395791813
0.00405383481
0.0041407278
0.00421868838
0.00428782118
0.00434824364
0.00440008558
0.0044434887
0.00447860605
0.00450560152
0.00452464934
0.00453593349
0.00453964723
0.00453599245
0.00452517922
0.00450742516
0.00448295488
0.00445199947
0.00441479585
0.00437158629
0.00432261777
0.00426814149
0.00420841222
0.00414368785
0.00407422874
0.00400029726
0.00392215718
0.00384007319
0.00375431037
0.00366513367
0.0035728074
0.00347759476
0.00337975737
0.00327955477
0.00317724399
0.00307307913
0.00296731089
0.00286018621
0.00275194785
0.00264283403
0.00253307803
0.00242290793
0.00231254618
0.00220220937
0.00209210792
0.0019824458
0.00187342027
0.00176522166
0.00165803316
0.00155203061
0.00144738233
0.00134424894
0.00124278326
0.00114313016
0.00104542646
0.000949800861
0.000856373867
0.000765257746
0.0006765565
0.000590365854
0.000506773266
0.00042585795
0.000347690918
0.000272335037
0.000199845108
0.000130267953
6.36425181e-05
7.63277915e-18
6.06360244e-05
0.000118249448
0.00017283147
0.000224380428
0.000272901604
0.000318407032
0.000360915288
0.000400451271
0.000437045976
0.000470736257
0.000501564581
0.000529578776
0.000554831771
0.000577381332
0.000597289788
0.000614623758
0.00062945387
0.000641854477
0.000651903371
0.000659681496
0.00066527266
0.000668763241
0.0006702419
0.00066979929
0.000667527772
0.000663521124
0.000657874259
0.000650682947
0.000642043539
0.000632052689
0.000620807096
0.000608403235
0.000594937105
0.000580503982
0.000565198171
0.000549112778
0.00053233948
0.000514968309
0.000497087441
0.000478782996
0.000460138849
0.000441236446
0.000422154638
0.000402969516
0.000383754263
0.000364579015
0.000345510734
0.00032661309
0.000307946355
0.000289567313
0.000271529171
0.000253881493
0.000236670141
0.000219937222
0.000203721059
0.00018805616
0.00017297321
0.000158499065
0.000144656762
0.000131465543
0.000118940881
0.000107094525
9.59345506e-05
8.54654244e-05
7.56880738e-05
6.65999704e-05
5.81952207e-05
5.04646662e-05
4.33959919e-05
3.69738435e-05
3.11799517e-05
2.59932649e-05
2.13900878e-05
1.73442275e-05
1.38271452e-05
1.08081136e-05
8.25438023e-06
6.13133416e-06
4.40267826e-06
3.03060449e-06
1.97597265e-06
1.19849185e-06
6.56904246e-07
3.09170473e-07
1.12656298e-07
2.43199855e-08
8.99842151e-10

shape_id 2
num_samples 1400
0.5
0
0
84
-0.5
0
0
85
0.5
0
0
85
-0.5
0
0
84
0.5
0
0
85
-0.5
0
0
84
0.5
0
0
85
-0.5
0
0
171
0.5
0
0
85
-0.5
0
0
85
0.5
0
0
84
-0.5
0
0
84
0.5
0
0
85
-0.5
0
0
85
0.5
0
0
84

shape_id 3
num_samples 7432
0
0
39
0.0002566
0.0001038
4.44e-05
2.08e-05
1.11e-05
6.7e-06
4.5e-06
3.1e-06
2.1e-06
1.4e-06
6e-07
-1e-07
-7e-07
-1.4e-06
-2.2e-06
-3e-06
-3.9e-06
-5e-06
-6.2e-06
-7.6e-06
-9.5e-06
-1.2e-05
-1.55e-05
-2.16e-05
-3.37e-05
-6.06e-05
-0.0001254
-0.0002886
-0.0007078
-0.0017957
-0.0046325
0
0
0
0.0742682
0.0704256
0.061236
0.0501609
0.040676
0.0322375
0.0244008
0.0169582
0.0097832
0.0027614
-0.0042315
-0.0113327
-0.0186974
-0.0265093
-0.0349942
-0.0443905
-0.0547007
-0.0648191
-0.0713268
-0.067823
-0.0765863
0
-0.0743452
-0.070915
-0.0662642
-0.0604445
-0.0535294
-0.0456147
-0.0368175
-0.0272758
-0.0171469
-0.0066062
0.0041556
0.0149347
0.025517
0.0356824
0.0452082
0.0538734
0.0614635
0.0677759
0.0726246
0.0758459
0.0773042
0.076897
0.0745612
0.0702769
0.0640738
0.0560338
0.046296
0.0350578
0.0225772
0.0091725
-0.0047795
-0.0188468
-0.032548
-0.045361
-0.0567339
-0.0660995
-0.0728943
-0.0765821
-0.0766823
-0.0728073
-0.064707
-0.0523287
-0.0358901
-0.0159773
0.0063368
0.0293633
0.0507063
0
0.0758872
0.0759493
0.0601678
0.0438319
0.029749
0.0162999
0.0028289
-0.0109091
-0.025143
-0.0401948
-0.0626508
0
-0.0764649
-0.0727286
-0.0608556
-0.0435126
-0.0232385
-0.0021633
0.0180586
0.0362181
0.0514886
0.0633608
0.0715856
0.0761217
0.0770935
0.0747526
0.0694461
0.0615883
0.0516362
0.0400691
0.0273706
0.0140142
0.0004504
-0.0129029
-0.025667
-0.0375098
-0.0481481
-0.0573503
-0.0649369
-0.0707805
-0.0748037
-0.0769764
-0.0773132
-0.0758691
-0.0727351
-0.0680339
-0.0619153
-0.0545501
-0.046127
-0.0368462
-0.0269157
-0.0165464
-0.0059488
0.0046721
0.015119
0.0252059
0.0347606
0.043627
0.0516665
0.0587602
0.0648088
0.0697342
0.0734791
0.0760072
0.0773024
0.0773689
0.0762294
0.0739242
0.07051
0.0660585
0.0606538
0.0543923
0.0473789
0.0397269
0.0315553
0.0229865
0.0141457
0.0051579
-0.0038528
-0.0127657
-0.0214639
-0.0298369
-0.0377803
-0.0451989
-0.0520053
-0.0581227
-0.0634842
-0.0680341
-0.0717275
-0.0745312
-0.0764234
-0.0773935
-0.0774418
-0.0765798
-0.0748292
-0.0722212
-0.0687961
-0.0646033
-0.0596988
-0.0541461
-0.0480146
-0.0413781
-0.0343152
-0.0269071
-0.0192372
-0.0113905
-0.0034518
0.0044944
0.0123652
0.0200796
0.0275603
0.0347332
0.0415286
0.0478823
0.053735
0.0590338
0.0637317
0.0677889
0.071172
0.0738549
0.0758186
0.0770512
0.0775478
0.0773109
0.0763493
0.0746787
0.0723212
0
0.0773419
0.0635839
0.0459919
0.0328286
0.0239594
0.0179241
0.0136552
0.010523
0.0081633
0.0063589
0.0049751
0.0039338
0.0032106
0.002856
0.0030517
0.0042141
0.0071415
0.0130902
0.0233003
0.0354314
-0.0765069
0
-0.0504716
-0.0544516
-0.0580801
-0.0613311
-0.0641813
-0.0666097
-0.0685978
-0.07013
-0.0711935
-0.0717777
-0.0720476
-0.0721031
-0.0716843
-0.0707618
-0.0693321
-0.0673939
-0.0649503
-0.0620081
-0.0584542
-0.0534062
-0.0484962
-0.0434313
-0.0380362
-0.0323492
-0.0267839
-0.022133
-0.0160682
-0.0096422
-0.0030515
0.0036566
0.0104321
0.0172226
0.0241563
0.0321905
0.0387232
0.0446404
0.0502055
0.0553698
0.0600876
0.0643159
0.0680157
0.0711518
0.073693
0.075613
0.0768907
0.0775098
0.0774596
0.0767352
0.0753374
0.073273
0.0705546
0.0672011
0.0632369
0.0586927
0.0536043
0.0480136
0.0419673
0.035517
0.0287186
0.0216328
0.0143229
0.006856
-0.0006987
-0.0082697
-0.0157847
-0.0231707
-0.0303543
-0.0372637
-0.043828
-0.049979
-0.0556511
-0.0607827
-0.0653167
-0.0692006
-0.0723883
-0.0748397
-0.0765215
-0.0774082
-0.0774821
-0.0767337
-0.0751618
-0.0727748
-0.0695892
-0.0656311
-0.0609352
-0.0555453
-0.0495134
-0.0429003
-0.0357739
-0.0282097
-0.0202896
-0.0121015
-0.0037378
0.0047047
0.0131264
0.0214259
0.0295008
0.0372497
0.0445724
0.0513723
0.0575568
0.0630388
0.0677388
0.0715846
0.074514
0.0764752
0.0774277
0.0773438
0.0762086
0.0740218
0.070797
0.0665631
0.0613635
0.0552568
0.0483164
0.0406294
0.0322969
0.023432
0.0141597
0.0046145
-0.0050605
-0.0147157
-0.0241976
-0.0333496
-0.0420163
-0.0500442
-0.0572858
-0.0636015
-0.0688624
-0.0729535
-0.0757762
-0.0772505
-0.0773179
-0.0759436
-0.0731186
-0.0688606
-0.0632161
-0.0562612
-0.0481011
-0.0388708
-0.0287338
-0.0178808
-0.0065274
0.0050887
0.016711
0.0280692
0.0388838
0.048872
0.0577541
0.065261
0.0711412
0.07517
0.0771566
0.0769538
0.0744664
0.0696593
0.0625658
0.053295
0.0420376
0.0290708
0.0147621
-0.0004315
-0.015964
-0.0312069
-0.0454586
-0.0579594
-0.0679127
-0.074515
-0.0769956
-0.074673
-0.0670323
-0.0538332
-0.0352673
-0.0121701
0.013716
0
0.076238
0.0691069
0.0561071
0.0429409
0.0318841
0.0218139
0.0122582
0.0032239
-0.0050026
-0.0119807
-0.0340442
0
-0.0715373
-0.0765386
-0.0719112
-0.0598865
-0.0429066
-0.0232197
-0.0027224
0.0170727
0.0350159
0.0502827
0.0623326
0.0708667
0.0757904
0.0771768
0.0752342
0.0702756
0.0626913
0.0529252
0.0414519
0.0287587
0.0153284
0.0016261
-0.0119126
-0.0248904
-0.0369552
-0.0478052
-0.0571919
-0.0649214
-0.0708545
-0.0749057
-0.0770402
-0.0772713
-0.0756561
-0.0722909
-0.0673067
-0.0608632
-0.0531441
-0.0443514
-0.0347001
-0.0244131
-0.0137165
-0.0028347
0.008014
0.0186201
0.0287877
0.0383364
0.0471039
0.0549485
0.0617494
0.0674089
0.0718525
0.0750286
0.0769091
0.077488
0.076781
0.0748243
0.0716726
0.0673981
0.062088
0.0558435
0.0487764
0.0410082
0.0326672
0.0238866
0.0148025
0.0055516
-0.0037307
-0.0129121
-0.0218648
-0.0304678
-0.0386079
-0.0461805
-0.0530919
-0.0592589
-0.0646104
-0.0690876
-0.0726439
-0.0752465
-0.0768747
-0.0775209
-0.0771899
-0.0758982
-0.0736746
-0.0705575
-0.0665963
-0.061849
-0.0563818
-0.0502681
-0.0435876
-0.0364246
-0.0288678
-0.0210083
-0.0129392
-0.0047537
0.0034547
0.0115945
0.0195766
0.027315
0.0347281
0.0417392
0.0482771
0.0542773
0.0596814
0.064439
0.0685068
0.0718496
0.0744399
0.0762589
0.0772954
0.0775467
0.0770176
0.075721
0.0736767
0.0709123
0.067461
0.0633632
0.0586641
0.0534144
0.0476695
0.0414879
0.0349323
0.0280673
0.0209597
0.0136777
0.00629
-0.0011349
-0.0085287
-0.0158246
-0.0229574
-0.0298648
-0.0364865
-0.0427662
-0.0486514
-0.0540932
-0.0590476
-0.0634756
-0.0673426
-0.0706202
-0.0732844
-0.0753175
-0.0767069
-0.0774457
-0.0775329
-0.0769722
-0.0757732
-0.0739506
-0.0715238
-0.0683342
-0.0637212
-0.0591501
-0.0542666
-0.0491989
-0.0450228
-0.0396873
-0.0338208
-0.0277028
-0.0210419
-0.0130546
-0.0062902
0.0002576
0.0067181
0.0130455
0.0191963
0.0251296
0.0308074
0.0358587
0.0399181
0.0448532
0.0495673
0.0539261
0.0579011
0.0614669
0.0646007
0.0672833
0.0694988
0.0712775
0.0725218
0.0728545
0.0726599
0.071985
0.0709399
0.0698805
0.0682728
0.0662003
0.0636999
0.0606016
0.0563586
0.0523168
0.0480745
0.0435762
0.0388545
0.0339428
0.0288747
0.023684
0.0184044
0.0130692
0.0084365
0.0040083
-0.0013466
-0.0066869
-0.0119809
-0.0174632
-0.023642
-0.0285818
-0.0331696
-0.0375214
-0.0416163
-0.0454353
-0.0489614
-0.0521795
-0.0550768
-0.0576424
-0.0598675
-0.0615245
-0.0629949
-0.0644988
-0.0656502
-0.0664463
-0.0668841
-0.0669318
-0.0663843
-0.0654253
-0.0641367
-0.0625245
-0.0606017
-0.0584248
-0.0565623
0
0.0645899
0.0427215
0.0215025
0.0027751
-0.0150447
-0.0340177
-0.0561153
-0.0732731
-0.0776135
-0.0775264
-0.0774835
-0.0776205
-0.0771401
0
-0.0019246
0.0023349
0.0065871
0.0108128
0.0147451
0.0179948
0.0220265
0.0260884
0.0300611
0.0339254
0.0376614
0.0413344
0.0454033
0.0486153
0.0514167
0.0539762
0.0562809
0.0582722
0.0597389
0.0613755
0.0628349
0.0640002
0.0648616
0.0654109
0.0656292
0.0653392
0.0646182
0.0635796
0.0622215
0.0605494
0.0585709
0.0562946
0.0537306
0.0512647
0.0488665
0.0457216
0.0423095
0.0386478
0.0347518
0.0305208
0.0251814
0.0203661
0.0156657
0.0108772
0.0060257
0.0011372
-0.0035474
-0.0073488
-0.012105
-0.0169959
-0.0218388
-0.0266061
-0.0313846
-0.0368123
-0.0412148
-0.0451537
-0.0488421
-0.0522582
-0.0553813
-0.0581926
-0.0606748
-0.0627401
-0.0642681
-0.0659432
-0.0673305
-0.0683365
-0.0689487
-0.0691569
-0.0689531
-0.0683314
-0.0672884
-0.0658234
-0.0639379
-0.0616364
-0.0589259
-0.0558163
-0.0523201
-0.0484529
-0.0441051
-0.0384205
-0.0331351
-0.0278608
-0.0223978
-0.0170064
-0.0125537
-0.0069888
-0.0010895
0.0048841
0.0110486
0.0183058
0.0244183
0.0300664
0.0355153
0.040726
0.0456611
0.0498972
0.0535136
0.057768
0.0616863
0.0652084
0.0683004
0.0709308
0.0730707
0.0746937
0.0757745
0.0761069
0.07557
0.0744317
0.0727224
0.0704514
0.0679151
0.0654966
0.0620872
0.0581103
0.0534718
0.0472204
0.0412629
0.0351793
0.0287948
0.0221597
0.0153267
0.0083512
0.0012895
-0.0057994
-0.0128568
-0.0198228
-0.0266378
-0.0332426
-0.0395794
-0.0455917
-0.051225
-0.0564278
-0.0611513
-0.0653505
-0.0689844
-0.0720163
-0.0744147
-0.0761531
-0.0772105
-0.0775721
-0.0772289
-0.0761785
-0.0744246
-0.0719777
-0.0688549
-0.0650797
-0.0606821
-0.0556984
-0.0501709
-0.0441478
-0.0376828
-0.0308345
-0.0236662
-0.0162449
-0.0086418
-0.0009303
0.0068137
0.014513
0.0220893
0.029465
0.0365623
0.0433063
0.0496234
0.0554439
0.0607022
0.065337
0.0692931
0.0725215
0.07498
0.0766344
0.0774581
0.0774335
0.0765522
0.0748147
0.0722314
0.0688224
0.0646175
0.0596561
0.053987
0.0476683
0.0407666
0.0333567
0.025521
0.0173483
0.0089337
0.0003766
-0.0082195
-0.0167488
-0.0251036
-0.0331769
-0.0408622
-0.0480565
-0.0546601
-0.0605794
-0.0657273
-0.0700252
-0.0734039
-0.075805
-0.0771821
-0.0775016
-0.0767439
-0.0749038
-0.0719916
-0.0680326
-0.0630683
-0.0571557
-0.0503672
-0.0427901
-0.0345262
-0.0256899
-0.0164083
-0.0068181
0.0029342
0.0126963
0.0223104
0.0316169
