# Pulseq sequence file
# Created by MATLAB mr toolbox

[VERSION]
major 1
minor 4
revision 1

[DEFINITIONS]
AdcRasterTime 1e-07 
BlockDurationRaster 1e-05 
FOV 0.192 0.192 0.15 
GradientRasterTime 1e-05 
MaxAdcSegmentLength 7432 
Name mreg_trial 
RadiofrequencyRasterTime 1e-06 
TE 0.00132 0.03617 
TotalDuration 0.1 

# Format of blocks:
# NUM DUR RF  GX  GY  GZ  ADC  EXT
[BLOCKS]
1 112   1   0   0   1  0  0
2  20   0   0   0   2  0  0
3 7434   0   3   4   5  1  0
4 683   0   6   6   6  0  0
5 1751   0   0   0   0  0  0

# Format of RF events:
# id amplitude mag_id phase_id time_shape_id delay freq phase
# ..        Hz   ....     ....          ....    us   Hz   rad
[RF]
1      1110.77 1 2 0 100 0 0

# Format of arbitrary gradients:
#   time_shape_id of 0 means default timing (stepping with grad_raster starting at 1/2 of grad_raster)
# id amplitude amp_shape_id time_shape_id delay
# ..      Hz/m       ..         ..          us
[GRADIENTS]
3       932911 3 0 10
4       929523 4 0 10
5      -966828 5 0 10

# Format of trapezoid gradients:
# id amplitude rise flat fall delay
# ..      Hz/m   us   us   us    us
[TRAP]
 1       133333  20 1000  20  80
 2      -680000 100    0 100   0
 6 -1.61551e+06 640 5550 640   0

# Format of ADC events:
# id num dwell delay freq phase
# ..  ..    ns    us   Hz   rad
[ADC]
1 14864 5000 10 0 0

# Sequence Shapes
[SHAPES]

shape_id 1
num_samples 1000
2.46987503e-09
6.67636965e-08
3.0918679e-07
8.47952035e-07
1.79970688e-06
3.27852669e-06
5.394915e-06
8.25481586e-06
1.1958644e-05
1.66003376e-05
2.226644e-05
2.90352139e-05
3.69757948e-05
4.61473873e-05
5.65985104e-05
6.83662944e-05
8.14758358e-05
9.59396136e-05
0.00011175697
0.00012891366
0.000147381475
0.000167117939
0.000188066085
0.00021015431
0.000233296313
0.00025739112
0.000282323189
0.000307962607
0.000334165371
0.000360773755
0.000387616768
0.000414510697
0.000441259733
0.000467656682
0.000493483763
0.000518513476
0.000542509556
0.000565227999
0.000586418157
0.0006058239
0.000623184845
0.000638237636
0.000650717287
0.000660358566
0.000666897424
0.000670072464
0.000669626438
0.00066530777
0.0006568721
0.000644083836
0.000626717712
0.00060456035
0.000577411803
0.00054508709
0.000507417706
0.000464253095
0.000415462096
0.000360934335
0.000300581568
0.000234338964
0.000162166317
8.40491959e-05
1.48381318e-18
8.99410632e-05
0.000185705097
0.000287193731
0.000394278448
0.000506800012
0.000624568018
0.000747360564
0.000874924041
0.00100697306
0.00114319049
0.00128322768
0.00142670475
0.00157321108
0.00172230592
0.00187351914
0.00202635209
0.00218027869
0.00233474658
0.00248917846
0.0026429735
0.00279550901
0.00294614211
0.00309421163
0.00323904007
0.00337993574
0.00351619495
0.0036471044
0.00377194357
0.00388998729
0.00400050837
0.00410278031
0.0041960801
0.00427969103
0.00435290569
0.00441502884
0.00446538046
0.00450329874
0.00452814317
0.0045392975
0.00453617288
0.0045182108
0.00448488614
0.00443571008
0.00437023303
0.00428804747
0.00418879069
0.00407214748
0.0039378527
0.00378569376
0.00361551295
0.00342720965
0.00322074239
0.0029961308
0.0027534573
0.00249286869
0.00221457757
0.00191886347
0.00160607388
0.00127662501
0.000931002378
0.000569761083
0.000193525957
0.000197008594
0.000601078967
0.00101785298
0.00144643078
0.00188584591
0.00233506677
0.00279299821
0.00325848342
0.00373030613
0.00420719296
0.00468781611
0.00517079625
0.00565470569
0.00613807173
0.00661938033
0.0070970799
0.0075695854
0.0080352826
0.00849253254
0.00893967623
0.00937503943
0.0097969377
0.0102036815
0.0105935816
0.0109649544
0.0113161274
0.011645445
0.011951274
0.0122320096
0.0124860811
0.0127119575
0.0129081537
0.0130732362
0.0132058287
0.0133046182
0.0133683604
0.0133958855
0.0133861033
0.0133380091
0.0132506885
0.0131233226
0.0129551928
0.0127456854
0.0124942962
0.0122006346
0.0118644272
0.011485522
0.0110638913
0.010599635
0.0100929831
0.00954429807
0.00895407707
0.00832295331
0.00765169746
0.00694121839
0.0061925637
0.00540691969
0.00458561098
0.00373009969
0.00284198417
0.00192299726
0.000975004206
1.20333267e-17
0.000999893637
0.00202243175
0.00306525011
0.00412586957
0.00520170089
0.00629004999
0.00738812364
0.00849303552
0.00960181273
0.0107114027
0.0118186803
0.0129204558
0.0140134825
0.0150944652
0.0161600688
0.0172069272
0.0182316526
0.0192308447
0.0202011007
0.0211390245
0.0220412379
0.0229043894
0.0237251656
0.0245003011
0.0252265891
0.0259008918
0.026520151
0.0270813987
0.0275817671
0.0280184995
0.0283889602
0.0286906445
0.0289211888
0.0290783802
0.0291601655
0.0291646612
0.0290901616
0.0289351473
0.0286982937
0.0283784786
0.027974789
0.0274865285
0.0269132233
0.0262546279
0.0255107307
0.0246817583
0.0237681798
0.0227707101
0.021690313
0.0205282031
0.0192858476
0.0179649666
0.016567534
0.0150957763
0.0135521712
0.0119394463
0.0102605754
0.00851877543
0.00671750226
0.00486044531
0.002951522
0.00099487113
0.00100515437
0.00304399546
0.0051168957
0.0072189107
0.00934491826
0.0114896292
0.0136475986
0.0158132384
0.0179808297
0.020144536
0.0222984177
0.0244364456
0.0265525167
0.028640469
0.0306940975
0.0327071705
0.034673446
0.0365866888
0.0384406875
0.040229272
0.0419463313
0.0435858308
0.0451418306
0.0466085032
0.0479801514
0.0492512263
0.0504163452
0.0514703087
0.0524081187
0.0532249957
0.0539163951
0.0544780242
0.0549058584
0.0551961567
0.0553454773
0.0553506917
0.0552089996
0.0549179415
0.0544754123
0.0538796727
0.0531293608
0.0522235025
0.0511615211
0.0499432459
0.0485689201
0.0470392075
0.0453551985
0.0435184144
0.0415308116
0.0393947839
0.037113164
0.034689224
0.0321266745
0.0294296627
0.0266027691
0.0236510032
0.0205797981
0.0173950036
0.0141028782
0.0107100801
0.00722365676
0.00365103336
2.69525919e-17
0.00372130208
0.00750439557
0.0113404833
0.0152204653
0.0191349574
0.0230743104
0.0270286304
0.0309878004
0.0349415023
0.0388792399
0.0427903634
0.0466640938
0.0504895483
0.054255767
0.057951739
0.0615664306
0.0650888125
0.0685078887
0.0718127247
0.074992477
0.0780364223
0.0809339866
0.0836747754
0.0862486025
0.0886455205
0.0908558494
0.0928702063
0.0946795345
0.0962751318
0.0976486788
0.098792267
0.0996984254
0.100360148
0.100770917
0.100924734
0.100816135
0.100440221
0.0997926793
0.0988698004
0.0976685027
0.0961863487
0.0944215637
0.0923730518
0.0900404105
0.0874239445
0.0845246776
0.081344363
0.0778854924
0.0741513031
0.0701457835
0.0658736775
0.0613404861
0.0565524682
0.0515166392
0.0462407679
0.0407333718
0.03500371
0.0290617751
0.0229182823
0.016584658
0.010073025
0.00339618737
0.00343238744
0.0103985879
0.0174876794
0.0246843271
0.0319726203
0.0393360986
0.0467577797
0.0542201883
0.0617053876
0.0691950104
0.0766702938
0.0841121136
0.0915010203
0.098817277
0.106040897
0.113151686
0.120129278
0.126953181
0.133602817
0.140057566
0.146296809
0.152299971
0.158046567
0.163516249
0.168688845
0.173544409
0.178063266
0.182226056
0.18601378
0.189407841
0.192390096
0.194942892
0.197049115
0.19869223
0.199856325
0.200526147
0.200687149
0.200325525
0.199428249
0.197983109
0.195978747
0.19340469
0.19025138
0.18651021
0.182173549
0.177234769
0.171688273
0.165529517
0.158755031
0.151362438
0.143350474
0.134719
0.125469015
0.11560267
0.105123274
0.0940352974
0.0823443818
0.0700573363
0.0571821387
0.0437279311
0.0297050147
0.0151248407
7.78453012e-16
0.01565579
0.0318277012
0.0484998126
0.0656551311
0.0832756133
0.101342191
0.1198348
0.138732405
0.158013037
0.177653824
0.197631025
0.217920071
0.238495604
0.259331518
0.280401003
0.301676586
0.323130184
0.344733148
0.366456313
0.38827005
0.410144317
0.43204871
0.453952522
0.475824795
0.497634373
0.519349965
0.540940197
0.562373669
0.583619016
0.604644966
0.625420391
0.645914375
0.666096264
0.685935726
0.70540281
0.724467998
0.743102264
0.761277129
0.778964714
0.796137792
0.812769843
0.828835102
0.844308609
0.859166258
0.873384843
0.886942102
0.899816758
0.911988567
0.923438348
0.934148028
0.944100671
0.953280516
0.961673003
0.969264806
0.976043855
0.98199936
0.987121836
0.991403117
0.994836372
0.997416122
0.999138249
1
1
0.999138249
0.997416122
0.994836372
0.991403117
0.987121836
0.98199936
0.976043855
0.969264806
0.961673003
0.953280516
0.944100671
0.934148028
0.923438348
0.911988567
0.899816758
0.886942102
0.873384843
0.859166258
0.844308609
0.828835102
0.812769843
0.796137792
0.778964714
0.761277129
0.743102264
0.724467998
0.70540281
0.685935726
0.666096264
0.645914375
0.625420391
0.604644966
0.583619016
0.562373669
0.540940197
0.519349965
0.497634373
0.475824795
0.453952522
0.43204871
0.410144317
0.38827005
0.366456313
0.344733148
0.323130184
0.301676586
0.280401003
0.259331518
0.238495604
0.217920071
0.197631025
0.177653824
0.158013037
0.138732405
0.1198348
0.101342191
0.0832756133
0.0656551311
0.0484998126
0.0318277012
0.01565579
8.53457223e-16
0.0151248407
0.0297050147
0.0437279311
0.0571821387
0.0700573363
0.0823443818
0.0940352974
0.105123274
0.11560267
0.125469015
0.134719
0.143350474
0.151362438
0.158755031
0.165529517
0.171688273
0.177234769
0.182173549
0.18651021
0.19025138
0.19340469
0.195978747
0.197983109
0.199428249
0.200325525
0.200687149
0.200526147
0.199856325
0.19869223
0.197049115
0.194942892
0.192390096
0.189407841
0.18601378
0.182226056
0.178063266
0.173544409
0.168688845
0.163516249
0.158046567
0.152299971
0.146296809
0.140057566
0.133602817
0.126953181
0.120129278
0.113151686
0.106040897
0.098817277
0.0915010203
0.0841121136
0.0766702938
0.0691950104
0.0617053876
0.0542201883
0.0467577797
0.0393360986
0.0319726203
0.0246843271
0.0174876794
0.0103985879
0.00343238744
0.00339618737
0.010073025
0.016584658
0.0229182823
0.0290617751
0.03500371
0.0407333718
0.0462407679
0.0515166392
0.0565524682
0.0613404861
0.0658736775
0.0701457835
0.0741513031
0.0778854924
0.081344363
0.0845246776
0.0874239445
0.0900404105
0.0923730518
0.0944215637
0.0961863487
0.0976685027
0.0988698004
0.0997926793
0.100440221
0.100816135
0.100924734
0.100770917
0.100360148
0.0996984254
0.098792267
0.0976486788
0.0962751318
0.0946795345
0.0928702063
0.0908558494
0.0886455205
0.0862486025
0.0836747754
0.0809339866
0.0780364223
0.074992477
0.0718127247
0.0685078887
0.0650888125
0.0615664306
0.057951739
0.054255767
0.0504895483
0.0466640938
0.0427903634
0.0388792399
0.0349415023
0.0309878004
0.0270286304
0.0230743104
0.0191349574
0.0152204653
0.0113404833
0.00750439557
0.00372130208
2.87585132e-16
0.00365103336
0.00722365676
0.0107100801
0.0141028782
0.0173950036
0.0205797981
0.0236510032
0.0266027691
0.0294296627
0.0321266745
0.034689224
0.037113164
0.0393947839
0.0415308116
0.0435184144
0.0453551985
0.0470392075
0.0485689201
0.0499432459
0.0511615211
0.0522235025
0.0531293608
0.0538796727
0.0544754123
0.0549179415
0.0552089996
0.0553506917
0.0553454773
0.0551961567
0.0549058584
0.0544780242
0.0539163951
0.0532249957
0.0524081187
0.0514703087
0.0504163452
0.0492512263
0.0479801514
0.0466085032
0.0451418306
0.0435858308
0.0419463313
0.040229272
0.0384406875
0.0365866888
0.034673446
0.0327071705
0.0306940975
0.028640469
0.0265525167
0.0244364456
0.0222984177
0.020144536
0.0179808297
0.0158132384
0.0136475986
0.0114896292
0.00934491826
0.0072189107
0.0051168957
0.00304399546
0.00100515437
0.00099487113
0.002951522
0.00486044531
0.00671750226
0.00851877543
0.0102605754
0.0119394463
0.0135521712
0.0150957763
0.016567534
0.0179649666
0.0192858476
0.0205282031
0.021690313
0.0227707101
0.0237681798
0.0246817583
0.0255107307
0.0262546279
0.0269132233
0.0274865285
0.027974789
0.0283784786
0.0286982937
0.0289351473
0.0290901616
0.0291646612
0.0291601655
0.0290783802
0.0289211888
0.0286906445
0.0283889602
0.0280184995
0.0275817671
0.0270813987
0.026520151
0.0259008918
0.0252265891
0.0245003011
0.0237251656
0.0229043894
0.0220412379
0.0211390245
0.0202011007
0.0192308447
0.0182316526
0.0172069272
0.0161600688
0.0150944652
0.0140134825
0.0129204558
0.0118186803
0.0107114027
0.00960181273
0.00849303552
0.00738812364
0.00629004999
0.00520170089
0.00412586957
0.00306525011
0.00202243175
0.000999893637
8.18509502e-17
0.000975004206
0.00192299726
0.00284198417
0.00373009969
0.00458561098
0.00540691969
0.0061925637
0.00694121839
0.00765169746
0.00832295331
0.00895407707
0.00954429807
0.0100929831
0.010599635
0.0110638913
0.011485522
0.0118644272
0.0122006346
0.0124942962
0.0127456854
0.0129551928
0.0131233226
0.0132506885
0.0133380091
0.0133861033
0.0133958855
0.0133683604
0.0133046182
0.0132058287
0.0130732362
0.0129081537
0.0127119575
0.0124860811
0.0122320096
0.011951274
0.011645445
0.0113161274
0.0109649544
0.0105935816
0.0102036815
0.0097969377
0.00937503943
0.00893967623
0.00849253254
0.0080352826
0.0075695854
0.0070970799
0.00661938033
0.00613807173
0.00565470569
0.00517079625
0.00468781611
0.00420719296
0.00373030613
0.00325848342
0.00279299821
0.00233506677
0.00188584591
0.00144643078
0.00101785298
0.000601078967
0.000197008594
0.000193525957
0.000569761083
0.000931002378
0.00127662501
0.00160607388
0.00191886347
0.00221457757
0.00249286869
0.0027534573
0.0029961308
0.00322074239
0.00342720965
0.00361551295
0.00378569376
0.0039378527
0.00407214748
0.00418879069
0.00428804747
0.00437023303
0.00443571008
0.00448488614
0.0045182108
0.00453617288
0.0045392975
0.00452814317
0.00450329874
0.00446538046
0.00441502884
0.00435290569
0.00427969103
0.0041960801
0.00410278031
0.00400050837
0.00388998729
0.00377194357
0.0036471044
0.00351619495
0.00337993574
0.00323904007
0.00309421163
0.00294614211
0.00279550901
0.0026429735
0.00248917846
0.00233474658
0.00218027869
0.00202635209
0.00187351914
0.00172230592
0.00157321108
0.00142670475
0.00128322768
0.00114319049
0.00100697306
0.000874924041
0.000747360564
0.000624568018
0.000506800012
0.000394278448
0.000287193731
0.000185705097
8.99410632e-05
7.63318197e-18
8.40491959e-05
0.000162166317
0.000234338964
0.000300581568
0.000360934335
0.000415462096
0.000464253095
0.000507417706
0.00054508709
0.000577411803
0.00060456035
0.000626717712
0.000644083836
0.0006568721
0.00066530777
0.000669626438
0.000670072464
0.000666897424
0.000660358566
0.000650717287
0.000638237636
0.000623184845
0.0006058239
0.000586418157
0.000565227999
0.000542509556
0.000518513476
0.000493483763
0.000467656682
0.000441259733
0.000414510697
0.000387616768
0.000360773755
0.000334165371
0.000307962607
0.000282323189
0.00025739112
0.000233296313
0.00021015431
0.000188066085
0.000167117939
0.000147381475
0.00012891366
0.00011175697
9.59396136e-05
8.14758358e-05
6.83662944e-05
5.65985104e-05
4.61473873e-05
3.69757948e-05
2.90352139e-05
2.226644e-05
1.66003376e-05
1.1958644e-05
8.25481586e-06
5.394915e-06
3.27852669e-06
1.79970688e-06
8.47952035e-07
3.0918679e-07
6.67636965e-08
2.46987503e-09

shape_id 2
num_samples 1000
0.5
0
0
59
-0.5
0
0
60
0.5
0
0
59
-0.5
0
0
60
0.5
0
0
59
-0.5
0
0
60
0.5
0
0
60
-0.5
0
0
122
0.5
0
0
59
-0.5
0
0
60
0.5
0
0
59
-0.5
0
0
60
0.5
0
0
59
-0.5
0
0
60
0.5
0
0
59

shape_id 3
num_samples 7432
0
0
39
0.0002566
0.0001041
4.47e-05
2.11e-05
1.14e-05
6.9e-06
4.7e-06
3.2e-06
2.2e-06
1.4e-06
7e-07
-1e-07
-7e-07
-1.5e-06
-2.2e-06
-3.1e-06
-4.1e-06
-5.1e-06
-6.5e-06
-8e-06
-9.9e-06
-1.24e-05
-1.62e-05
-2.24e-05
-3.47e-05
-6.18e-05
-0.0001268
-0.0002899
-0.0007083
-0.0017935
-0.0046223
0
0
0
0.0729612
0.0675817
0.0619314
0.0514749
0.0421708
0.033803
0.0258483
0.0180193
0.0104077
0.0029192
-0.0045493
-0.0121163
-0.0199193
-0.02813
-0.0367118
-0.0461561
-0.0563941
-0.0646143
-0.0682456
-0.0662971
-0.0763958
0
-0.0742914
-0.0708642
-0.0662173
-0.0604024
-0.053493
-0.0455846
-0.0367943
-0.0272601
-0.017139
-0.0066064
0.0041473
0.0149182
0.0254929
0.0356509
0.0451699
0.0538291
0.0614143
0.0677227
0.0725687
0.0757886
0.0772469
0.0768413
0.0745083
0.0702286
0.0640313
0.0559986
0.0462691
0.0350401
0.0225696
0.0091754
-0.0047661
-0.0188229
-0.0325146
-0.0453189
-0.0566846
-0.066045
-0.0728368
-0.0765243
-0.0766272
-0.0727577
-0.0646663
-0.0522997
-0.0358755
-0.015979
0.0063181
0.0293283
0.0506577
0
0.0757181
0.0760893
0.0601136
0.0437426
0.02968
0.0162548
0.0028131
-0.010876
-0.0250172
-0.0398926
-0.0628355
0
-0.0764078
-0.0726838
-0.060828
-0.0435044
-0.0232493
-0.0021915
0.0180161
0.0361646
0.0514277
0.0632965
0.0715212
0.0760605
0.0770382
0.0747057
0.0694093
0.0615628
0.051623
0.0400683
0.0273823
0.0140375
0.0004845
-0.012859
-0.0256151
-0.0374513
-0.0480847
-0.0572839
-0.0648694
-0.0707137
-0.0747392
-0.0769159
-0.077258
-0.0758207
-0.0726944
-0.068002
-0.0618926
-0.0545373
-0.0461241
-0.0368532
-0.0269326
-0.0165728
-0.0059839
0.0046289
0.0150686
0.0251492
0.0346988
0.0435611
0.0515979
0.0586901
0.0647383
0.0696647
0.0734117
0.075943
0.0772425
0.0773144
0.0761809
0.0738826
0.070476
0.0660325
0.0606363
0.0543833
0.0473788
0.0397356
0.0315725
0.0230121
0.0141792
0.005199
-0.003805
-0.0127116
-0.0214044
-0.0297727
-0.0377125
-0.0451281
-0.0519327
-0.0580492
-0.0634107
-0.0679615
-0.0716568
-0.0744634
-0.0763591
-0.0773336
-0.0773871
-0.0765309
-0.0747867
-0.0721855
-0.0687678
-0.0645825
-0.0596859
-0.0541413
-0.0480177
-0.0413893
-0.0343343
-0.0269337
-0.0192713
-0.0114315
-0.0034993
0.004441
0.0123063
0.020016
0.0274925
0.0346621
0.041455
0.0478067
0.0536584
0.0589568
0.0636553
0.0677138
0.0710989
0.0737846
0.0757518
0.0769884
0.0774898
0.0772581
0.0763024
0.074638
0.0722872
0
0.0684689
0.0527184
0.0422039
0.0341603
0.0282479
0.0236845
0.0198571
0.0164546
0.0134088
0.0107523
0.0083879
0.0062676
0.0043756
0.0027576
0.0015911
0.0013202
0.0028881
0.0080461
0.0193393
0.0371256
-0.0763384
0
-0.0503971
-0.0543773
-0.0580063
-0.0612585
-0.0641102
-0.0665407
-0.0685313
-0.0700665
-0.0711336
-0.0717214
-0.0719945
-0.0720542
-0.0716401
-0.070723
-0.0692986
-0.0673663
-0.064929
-0.0619931
-0.0584459
-0.0534064
-0.0485035
-0.0434454
-0.0380572
-0.0323767
-0.0268176
-0.0221715
-0.0161129
-0.0096929
-0.0031078
0.003595
0.0103655
0.0171515
0.0240813
0.0321116
0.038642
0.0445577
0.0501219
0.0552862
0.0600044
0.0642342
0.067936
0.0710747
0.0736193
0.0755435
0.0768258
0.0774502
0.0774059
0.0766878
0.0752969
0.0732397
0.0705289
0.0671832
0.0632272
0.058691
0.0536109
0.0480286
0.0419903
0.0355479
0.0287574
0.0216789
0.014376
0.0069156
-0.000633
-0.0081987
-0.0157091
-0.023091
-0.0302714
-0.0371784
-0.0437412
-0.0498915
-0.0555638
-0.0606966
-0.0652325
-0.0691195
-0.0723109
-0.0747668
-0.0764542
-0.0773471
-0.0774279
-0.0766869
-0.0751233
-0.0727447
-0.0695682
-0.0656193
-0.0609329
-0.0555525
-0.0495303
-0.0429265
-0.0358092
-0.0282539
-0.0203422
-0.0121618
-0.0038053
0.0046309
0.0130471
0.0213419
0.0294134
0.0371597
0.0444811
0.0512808
0.0574663
0.0629504
0.0676537
0.0715041
0.0744391
0.076407
0.0773671
0.0772916
0.0761659
0.0739891
0.0707749
0.066552
0.0613636
0.0552683
0.0483392
0.0406632
0.0323413
0.0234864
0.0142235
0.0046867
-0.004981
-0.0146302
-0.0241072
-0.033256
-0.0419207
-0.0499486
-0.0571916
-0.0635104
-0.0687761
-0.0728736
-0.0757041
-0.0771876
-0.0772658
-0.0759032
-0.0730908
-0.0688461
-0.0632155
-0.0562746
-0.0481283
-0.0389116
-0.0287874
-0.0179462
-0.0066033
0.0050038
0.0166191
0.0279723
0.0387843
0.0487721
0.0576566
0.0651684
0.0710562
0.0750949
0.0770938
0.0769055
0.0744342
0.0696446
0.0625695
0.0533173
0.0420781
0.0291288
0.0148354
-0.000345
-0.0158677
-0.0311045
-0.0453548
-0.0578591
-0.0678213
-0.0744377
-0.0769377
-0.0746395
-0.0670263
-0.0538571
-0.0353207
-0.0122498
0.0136171
0
0.0760887
0.0691498
0.0560436
0.0428561
0.0318211
0.0217742
0.0122413
0.0032397
-0.0049073
-0.0116272
-0.0340584
0
-0.0714485
-0.0764831
-0.0718942
-0.0599078
-0.0429623
-0.0233034
-0.0028264
0.0169562
0.0348947
0.0501643
0.0622232
0.0707717
0.0757141
0.0771223
0.0752033
0.0702692
0.0627093
0.0529665
0.0415146
0.0288405
0.0154261
0.0017363
-0.0117933
-0.0247659
-0.0368291
-0.0476814
-0.0570736
-0.0648119
-0.0707566
-0.0748218
-0.0769724
-0.0772211
-0.0756245
-0.0722788
-0.067314
-0.0608898
-0.0531891
-0.0444138
-0.0347784
-0.0245058
-0.0138213
-0.0029495
0.0078913
0.0184923
0.0286571
0.0382055
0.0469753
0.0548244
0.0616321
0.0673005
0.0717549
0.0749434
0.0768378
0.0774317
0.0767407
0.0748004
0.0716656
0.067408
0.0621147
0.0558864
0.0488348
0.0410813
0.0327537
0.0239853
0.0149117
0.0056698
-0.0036053
-0.0127813
-0.0217304
-0.0303318
-0.0384721
-0.046047
-0.0529623
-0.0591351
-0.064494
-0.06898
-0.0725467
-0.0751609
-0.0768017
-0.0774615
-0.0771447
-0.075868
-0.0736595
-0.0705578
-0.066612
-0.0618798
-0.0564272
-0.0503278
-0.0436606
-0.0365103
-0.028965
-0.0211158
-0.0130558
-0.0048782
0.0033239
0.0114589
0.0194376
0.0271742
0.034587
0.0415994
0.0481402
0.0541446
0.0595545
0.0643192
0.0683952
0.0717474
0.0743484
0.0761788
0.0772276
0.0774919
0.0769763
0.0756935
0.0736635
0.0709133
0.0674764
0.0633926
0.0587073
0.0534711
0.0477389
0.0415695
0.0350252
0.0281707
0.0210726
0.0137989
0.0064185
-0.0010003
-0.0083893
-0.0156816
-0.0228123
-0.0297186
-0.0363408
-0.0426224
-0.0485104
-0.0539564
-0.0589164
-0.0633509
-0.0672257
-0.0705119
-0.0731858
-0.0752293
-0.0766299
-0.0773807
-0.0774802
-0.0769324
-0.0757467
-0.0739374
-0.0715241
-0.0683486
-0.0637518
-0.0591937
-0.0543226
-0.0492662
-0.0450987
-0.0397737
-0.0339174
-0.027809
-0.021157
-0.0131787
-0.0064205
0.0001226
0.0065792
0.012904
0.019053
0.0249859
0.0306642
0.0357168
0.0397777
0.0447153
0.049433
0.0537963
0.0577768
0.0613488
0.0644898
0.0671803
0.0694044
0.0711929
0.0724496
0.0727933
0.0726099
0.0719461
0.0709116
0.0698611
0.0682648
0.0662038
0.0637149
0.0606286
0.0563993
0.0523683
0.0481364
0.0436477
0.0389353
0.0340323
0.0289721
0.0237888
0.0185157
0.0131864
0.0085581
0.0041341
-0.0012166
-0.0065532
-0.0118447
-0.017325
-0.0235029
-0.0284433
-0.0330324
-0.0373862
-0.0414839
-0.0453065
-0.0488369
-0.0520599
-0.0549628
-0.0575345
-0.0597663
-0.0614295
-0.0629059
-0.0644175
-0.0655771
-0.0663816
-0.0668285
-0.0668858
-0.06635
-0.0654011
-0.0641222
-0.0625199
-0.0606068
-0.0584393
-0.0565843
0
0.0643468
0.0434828
0.0230984
0.0023751
-0.0176844
-0.0357928
-0.0557126
-0.072141
-0.0775551
-0.0774596
-0.0774961
-0.0775664
-0.0771291
0
-0.002045
0.0022113
0.0064608
0.0106845
0.0146154
0.017864
0.021895
0.0259567
0.0299298
0.033795
0.0375326
0.0412081
0.0452808
0.0484969
0.0513029
0.0538676
0.0561779
0.0581752
0.059647
0.0612899
0.0627565
0.0639294
0.0647991
0.0653567
0.0655842
0.0653054
0.0645944
0.0635655
0.0622171
0.0605549
0.0585861
0.0563196
0.0537652
0.0513077
0.0489173
0.0457817
0.0423787
0.0387259
0.0348384
0.0306156
0.0252854
0.0204772
0.015783
0.0109999
0.0061534
0.0012691
-0.0034121
-0.007211
-0.0119647
-0.0168536
-0.0216952
-0.0264621
-0.0312411
-0.0366707
-0.041076
-0.0450185
-0.0487111
-0.0521322
-0.0552611
-0.058079
-0.0605683
-0.062641
-0.0641753
-0.0658586
-0.0672551
-0.0682707
-0.0688931
-0.0691119
-0.068919
-0.0683087
-0.0672773
-0.0658241
-0.0639506
-0.061661
-0.0589625
-0.0558649
-0.0523804
-0.0485246
-0.0441884
-0.0385164
-0.0332413
-0.0279761
-0.0225213
-0.0171372
-0.01269
-0.0071314
-0.0012379
0.004731
0.0108916
0.0181461
0.0242577
0.0299063
0.0353567
0.0405699
0.0455088
0.0497491
0.0533697
0.0576301
0.0615555
0.0650858
0.068187
0.0708275
0.0729785
0.0746134
0.0757071
0.0760563
0.0755341
0.0744105
0.0727158
0.0704598
0.0679371
0.0655305
0.0621358
0.0581737
0.0535498
0.047315
0.0413709
0.0352992
0.0289256
0.0223004
0.0154764
0.0085082
0.001453
-0.0056311
-0.0126848
-0.0196488
-0.0264631
-0.0330688
-0.039408
-0.045424
-0.0510628
-0.0562724
-0.061004
-0.0652127
-0.0688574
-0.0719012
-0.0743127
-0.0760651
-0.0771373
-0.0775146
-0.0771876
-0.0761537
-0.0744169
-0.0719871
-0.0688814
-0.065123
-0.0607421
-0.0557744
-0.0502624
-0.0442539
-0.0378026
-0.0309669
-0.0238098
-0.0163986
-0.0088039
-0.0010994
0.0066395
0.0143352
0.0219098
0.0292855
0.0363849
0.0431326
0.0494554
0.0552833
0.0605507
0.0651963
0.0691649
0.072407
0.0748807
0.0765513
0.0773923
0.0773859
0.0765233
0.0748049
0.072241
0.0688514
0.0646657
0.0597229
0.0540719
0.0477703
0.0408847
0.0334894
0.025667
0.0175059
0.0091008
0.0005514
-0.0080391
-0.016565
-0.0249189
-0.0329933
-0.0406824
-0.0478826
-0.0544946
-0.0604244
-0.0655849
-0.0698975
-0.0732926
-0.0757118
-0.0771084
-0.0774485
-0.0767123
-0.0748944
-0.0720046
-0.0680679
-0.0631257
-0.0572345
-0.0504662
-0.0429083
-0.0346615
-0.0258408
-0.0165721
-0.0069928
0.0027516
0.0125085
0.0221206
0.0314281
0.0402716
0.048494
0.0559444
0.0624795
0.0679675
0.0722905
0.0753472
0.0770555
0.0773553
0.0762102
0.0736095
0.0695703
0.0641379
0.0573866
0.0494208
0.0403732
0.0304049
0.0197032
0.0084796
-0.0030335
-0.0145863
-0.0259159
-0.0367517
-0.0468205
-0.0558534
-0.0635922
-0.0697964
-0.0742512
-0.0767745
-0.0772252
-0.0755096
-0.0715895
-0.0654878
-0.0572945
-0.0471707
-0.0353513
-0.0221466
-0.0079404
0.0068123
0.0215934
0.0358301
0.0489084
0.0601913
0.06904
0.0748406
0.0770384
0.0751747
0.0689355
0.0582051
0.0431338
0.0242168
0.0023907
-0.0208556
-0.0433677
-0.0622671
0
-0.0775385
-0.0721758
-0.0580536
-0.0404976
-0.0213539
-0.0010947
0.0177267
0.0343583
0.0554334
0.0764406
0.0766534
0
0.0602692
0.0385789
0.013269
-0.0119856
-0.0346065
-0.0529903
-0.0662948
-0.0742411
-0.0769567
-0.0748555
-0.0685435
-0.0587468
-0.0462542
-0.0318715
-0.0163852
-0.0005363
0.0150015
0.029636
0.0428661
0.0542866
0.0635907
0.070567
0.0750967
0.0771459
0.0767595
0.0740509
0.069193
0.062408
0.0539571
0.0441303
0.0332371
0.0215963
0.0095286
-0.0026522
-0.0146456
-0.0261704
-0.0369703
-0.0468172
-0.0555151
-0.0629019
-0.068851
-0.0732715
-0.0761085
-0.0773415
-0.0769837
-0.0750791
-0.0717005
-0.0669467
-0.0609387
-0.0538173
-0.0457383
-0.0368704
-0.0273902
-0.0174801
-0.0073233
0.002898
0.0130061
0.0228311
0.0322128
0.0410029
0.0490672
0.0562875
0.0625618
0.0678061
0.071955
0.0749619
0.0767983
0.077455
0.0769401
0.0752791
0.0725138
0.068701
0.0639111
0.0582268
0.0517416
0.0445579
0.0367855
0.0285396
0.0199397
0.0111069
0.002163
-0.0067711
-0.0155779
-0.0241433
-0.0323593
-0.0401244
-0.0473448
-0.0539356
-0.0598217
-0.0649378
-0.0692299
-0.0726546
-0.0751804
-0.0767868
-0.077465
-0.077217
-0.0760563
-0.0740063
-0.0711005
-0.0673816
-0.0629013
-0.0577182
-0.0518987
-0.0455147
-0.0386432
-0.0313656
-0.0237661
-0.015931
-0.0079481
9.51e-05
0.0081114
0.0160158
0.0237254
0.0311607
0.0382466
0.0449125
0.0510933
0.05673
0.0617698
0.0661669
0.0698827
0.0728858
0.0751524
0.0766667
0.0774199
0.0774114
0.0766476
0.0751423
0.0729162
0.0699966
0.0664171
0.0622171
0.057441
0.0521386
0.0463633
0.0401727
0.0336271
0.0267895
0.0197245
0.0124982
0.0051772
-0.0021719
-0.0094832
-0.0166916
-0.0237342
-0.0305501
-0.037081
-0.0432722
-0.049072
-0.0544334
-0.0593132
-0.0636731
-0.0674796
-0.0707044
-0.0733241
-0.0753212
-0.076683
-0.0774026
-0.0774787
-0.0769146
-0.0757196
-0.0739076
-0.0714975
-0.0685127
-0.0649813
-0.060935
-0.0564099
-0.0512053
-0.0445869
-0.0385167
-0.0323567
-0.0260249
-0.0205366
-0.0149613
-0.0084151
-0.0018168
0.0051005
0.0129749
0.0194506
0.0255412
0.0313735
0.0369099
0.0421168
0.0469631
0.0514217
0.0554685
0.0590831
0.0622487
0.064952
0.0671831
0.0689355
0.070202
0.0709336
0.0715455
0.0717942
0.071568
0.0708709
0.069611
0.0674181
0.0649653
0.0621597
0.058987
0.0554735
0.0516475
0.047538
0.0431753
0.0385908
0.0338161
0.0290743
0.0251396
0.0202647
0.0150798
0.0098104
0.004488
-0.000855
-0.006187
-0.0114763
-0.0166919
-0.0220486
-0.0279953
-0.0327555
-0.0371543
-0.0412984
-0.0451678
-0.0485927
-0.0512668
-0.0543836
-0.0573026
-0.0598971
-0.0621537
-0.0641251
-0.0658062
-0.066706
-0.0671916
-0.0673069
-0.0670568
-0.0664555
-0.0657611
-0.0648119
-0.0634675
-0.061787
-0.0597803
-0.0574594
-0.0548375
-0.0517552
-0.0477623
-0.0440624
-0.0402452
-0.0362531
-0.0321092
-0.0278363
-0.0239488
-0.0203508
-0.015877
-0.0113273
-0.0067249
-0.0018521
0.0037712
0.0084611
0.012954
0.0173475
0.0216216
0.0257572
0.0295515
0.032595
0.0362563
0.0398635
0.0432776
0.0464832
0.0495991
0.0527989
0.0551315
0.0571177
0.0588234
0.0602441
0.0613771
0.0622204
0.0627742
0.0630393
0.0630181
0.0627145
0.0621329
0.0612796
0.0601617
0.0588505
0.0576618
0.0560724
0.0541824
0.0520574
0.0497074
0.0471433
0.0443769
0.0414204
0.0382875
0.0349919
0.0315483
0.0277687
0.0232139
0.019261
0.0153484
0.0113984
0.0074279
0.0034538
-0.0005072
-0.0043435
-0.0073972
-0.0110465
-0.0148771
-0.0186444
-0.0223333
-0.0259287
-0.0294166
-0.032952
-0.0368075
-0.0398231
0
-0.0765327
-0.0700801
-0.0647605
-0.0561452
-0.0478109
-0.0417389
-0.0377013
-0.0352877
-0.0346385
-0.0368863
-0.0448165
-0.0642865
-0.075127
0
-0.0594953
-0.059482
-0.0592455
-0.0587842
-0.0580976
-0.0571859
-0.0560104
-0.0542749
-0.0524499
-0.0504728
-0.0483195
-0.0459788
-0.043459
-0.0407698
-0.037921
-0.0350028
-0.0325891
-0.0295911
-0.0262925
-0.0228689
-0.0193326
-0.0156967
-0.0119742
-0.0081798
-0.0042288
0.0005052
0.0046187
0.0085075
0.0123639
0.0161723
0.0199168
0.023582
0.0271528
0.0306143
0.0335052
0.0363055
0.0395069
0.0425649
0.045465
0.0481932
0.050736
0.0530804
0.0552559
0.0574331
0.0590012
0.0602228
0.0611675
0.0618484
0.0622618
0.0624051
0.0622771
0.0618823
0.0614087
0.0607419
0.0597619
0.0585097
0.0569878
0.0551998
0.0531505
0.0507762
0.0475716
0.0444718
0.0413003
0.037938
0.0343995
0.0307004
0.0272993
0.0240872
0.0200851
0.0159509
0.0117108
0.0073837
0.0029886
-0.001565
-0.0069626
-0.0116187
-0.0159929
-0.0202937
-0.0244997
-0.0285908
-0.0325463
-0.0363469
-0.0398389
-0.0426293
-0.0459163
-0.0491403
-0.0521458
-0.0549146
-0.0574299
-0.0596754
-0.0616362
-0.0632982
-0.0646492
-0.0656774
-0.0663736
-0.0667291
-0.0667202
-0.0661319
-0.0651232
-0.0637866
-0.0621103
-0.0601015
-0.0581355
-0.0560565
-0.0533473
-0.0503254
-0.0470025
-0.0433927
-0.0394042
-0.0343161
-0.0296033
-0.0249265
-0.0201059
-0.0151676
-0.0104553
-0.0064202
-0.0013651
0.0038205
0.0090314
0.0142376
0.0195313
0.0256195
0.0307254
0.0354046
0.0398798
0.0441236
0.0481098
0.0517604
0.0545675
0.0577023
0.0607506
0.0634579
0.0658022
0.0677903
0.0694587
0.0703065
0.0706408
0.0705328
0.0699816
0.0689885
0.0675582
0.0656976
0.0634167
0.0607284
0.0576479
0.0542598
0.0513273
0.0476526
0.0434159
0.0388487
0.0339758
0.0288241
0.0234234
0.0178062
0.0120066
0.0060615
9.5e-06
-0.0061093
-0.0122529
-0.018378
-0.024441
-0.0305332
-0.0373928
-0.0430135
-0.048053
-0.0527534
-0.0564975
-0.0601672
-0.0640347
-0.0674672
-0.0704297
-0.0728902
-0.0748197
-0.0761926
-0.0769864
-0.077158
-0.0763771
-0.0748573
-0.0727526
-0.0700593
